x_real,y_real,z_real,yaw,velocity,change_flag
640163.2200,5193551.2739,160.0000,2.2293,0,0
640162.5129,5193552.1096,160.0000,2.2319,5.8339,0
640161.7822,5193552.9758,160.0000,2.2379,8.4008,0
640161.1188,5193553.7441,160.0000,2.2434,10.3843,0
640160.3195,5193554.6661,160.0000,2.2480,12.2511,0
640159.6248,5193555.4511,160.0000,2.2507,13.5346,0
640158.8607,5193556.3218,160.0000,2.2518,14.8180,0
640158.0242,5193557.2655,160.0000,2.2511,16.1015,0
640157.1227,5193558.2907,160.0000,2.2498,17.3849,0
640156.1586,5193559.3886,160.0000,2.2470,18.2017,0
640155.4851,5193560.1587,160.0000,2.2446,18.4350,0
640154.8048,5193560.9420,160.0000,2.2423,18.6684,0
640154.1203,5193561.7260,160.0000,2.2408,18.5517,0
640153.4450,5193562.5051,160.0000,2.2394,18.5517,0
640152.7783,5193563.2747,160.0000,2.2379,18.2017,0
640152.1220,5193564.0368,160.0000,2.2367,17.9683,0
640151.1566,5193565.1607,160.0000,2.2342,17.6183,0
640150.2151,5193566.2632,160.0000,2.2317,17.2683,0
640149.2945,5193567.3430,160.0000,2.2299,16.9182,0
640148.4005,5193568.4045,160.0000,2.2280,16.4515,0
640147.5289,5193569.4377,160.0000,2.2263,16.1015,0
640146.6834,5193570.4425,160.0000,2.2251,15.5181,0
640145.8678,5193571.4163,160.0000,2.2248,14.5847,0
640145.1033,5193572.3297,160.0000,2.2243,13.7679,0
640144.3963,5193573.1717,160.0000,2.2247,12.8345,0
640143.7346,5193573.9633,160.0000,2.2252,11.9011,0
640142.9200,5193574.9357,160.0000,2.2255,11.0844,0
640142.1606,5193575.8377,160.0000,2.2266,10.5010,0
640141.4341,5193576.7046,160.0000,2.2296,10.0343,0
640140.7289,5193577.5353,160.0000,2.2328,10.0343,0
640140.0158,5193578.3691,160.0000,2.2355,10.0343,0
640139.2952,5193579.2129,160.0000,2.2311,9.9176,0
640138.5990,5193580.0368,160.0000,2.2143,9.8009,0
640137.9501,5193580.8543,160.0000,2.1829,9.5676,0
640137.3223,5193581.6956,160.0000,2.1409,9.8009,0
640136.7301,5193582.5814,160.0000,2.0827,10.0343,0
640136.1884,5193583.5257,160.0000,2.0031,10.2676,0
640135.7253,5193584.5312,160.0000,1.9009,10.6176,0
640135.3807,5193585.5917,160.0000,1.7834,10.6176,0
640135.1559,5193586.7011,160.0000,1.6632,10.8510,0
640135.0748,5193587.8539,160.0000,1.5406,11.2010,0
640135.1381,5193589.0513,160.0000,1.4147,11.5511,0
640135.3656,5193590.2809,160.0000,1.2918,11.9011,0
640135.7482,5193591.5318,160.0000,1.1843,12.3678,0
640136.1319,5193592.4771,160.0000,1.1207,12.8345,0
640136.5783,5193593.4437,160.0000,1.0745,13.3012,0
640137.0892,5193594.4333,160.0000,1.0424,13.8846,0
640137.6457,5193595.4525,160.0000,1.0229,14.4680,0
640138.2360,5193596.5079,160.0000,1.0105,14.7014,0
640138.8563,5193597.5814,160.0000,0.9992,14.8180,0
640139.4873,5193598.6449,160.0000,0.9895,14.8180,0
640140.1188,5193599.6945,160.0000,0.9838,14.7014,0
640140.7451,5193600.7282,160.0000,0.9820,14.4680,0
640141.3626,5193601.7501,160.0000,0.9836,14.1180,0
640141.9584,5193602.7431,160.0000,0.9863,13.6513,0
640142.5269,5193603.6964,160.0000,0.9890,13.0679,0
640143.0745,5193604.6199,160.0000,0.9918,12.7178,0
640143.6006,5193605.5084,160.0000,0.9942,12.2511,0
640144.1075,5193606.3726,160.0000,0.9968,11.9011,0
640144.7592,5193607.4844,160.0000,0.9949,11.4344,0
640145.3952,5193608.5561,160.0000,0.9741,11.2010,0
640146.0607,5193609.5862,160.0000,0.9222,11.0844,0
640146.7816,5193610.5606,160.0000,0.8396,11.2010,0
640147.5861,5193611.4385,160.0000,0.7237,11.4344,0
640148.5147,5193612.2228,160.0000,0.5774,11.9011,0
640149.5886,5193612.8569,160.0000,0.3988,12.3678,0
640150.7695,5193613.2761,160.0000,0.1956,12.4845,0
640152.0247,5193613.4393,160.0000,-0.0183,12.6012,0
640153.3078,5193613.3197,160.0000,-0.2336,12.9512,0
640154.2727,5193613.0453,160.0000,-0.3826,13.3012,0
640155.2345,5193612.6194,160.0000,-0.5165,13.7679,0
640156.1900,5193612.0423,160.0000,-0.6348,14.4680,0
640157.1279,5193611.3181,160.0000,-0.7354,15.2847,0
640158.0595,5193610.4593,160.0000,-0.8134,16.2182,0
640159.0027,5193609.4781,160.0000,-0.8598,17.3849,0
640159.9916,5193608.3867,160.0000,-0.8836,18.7851,0
640160.6839,5193607.6042,160.0000,-0.8891,19.8352,0
640161.4112,5193606.7801,160.0000,-0.8921,20.7686,0
640162.1699,5193605.9141,160.0000,-0.8931,21.7020,0
640162.9654,5193605.0081,160.0000,-0.8941,22.5187,0
640163.7965,5193604.0622,160.0000,-0.8951,23.4522,0
640164.6543,5193603.0828,160.0000,-0.8975,24.2689,0
640165.5384,5193602.0655,160.0000,-0.9016,24.8523,0
640166.4435,5193601.0175,160.0000,-0.9051,25.2023,0
640167.3600,5193599.9456,160.0000,-0.9082,25.4357,0
640168.2812,5193598.8644,160.0000,-0.9109,25.4357,0
640169.1983,5193597.7807,160.0000,-0.9135,25.6690,0
640170.1096,5193596.6974,160.0000,-0.9162,25.5524,0
640171.0146,5193595.6119,160.0000,-0.9183,25.5524,0
640171.9164,5193594.5280,160.0000,-0.9202,25.4357,0
640172.8147,5193593.4433,160.0000,-0.9218,25.4357,0
640173.7052,5193592.3621,160.0000,-0.9236,25.3190,0
640174.5928,5193591.2809,160.0000,-0.9252,25.3190,0
640175.4775,5193590.2040,160.0000,-0.9265,25.2023,0
640176.3566,5193589.1297,160.0000,-0.9276,25.0856,0
640177.2309,5193588.0545,160.0000,-0.9289,24.9690,0
640178.1038,5193586.9815,160.0000,-0.9299,24.9690,0
640178.9699,5193585.9137,160.0000,-0.9307,24.7356,0
640179.8311,5193584.8513,160.0000,-0.9318,24.5023,0
640180.6813,5193583.7992,160.0000,-0.9330,23.6855,0
640181.5117,5193582.7701,160.0000,-0.9334,23.2188,0
640182.3144,5193581.7713,160.0000,-0.9336,22.5187,0
640183.0875,5193580.8080,160.0000,-0.9339,21.9354,0
640183.8402,5193579.8712,160.0000,-0.9337,21.1186,0
640184.5706,5193578.9637,160.0000,-0.9333,20.5352,0
640185.2772,5193578.0832,160.0000,-0.9333,19.9518,0
640185.9650,5193577.2320,160.0000,-0.9325,19.3685,0
640186.6315,5193576.4043,160.0000,-0.9322,19.2518,0
640187.2845,5193575.6019,160.0000,-0.9309,18.5517,0
640187.9286,5193574.8090,160.0000,-0.9302,18.3184,0
640188.5699,5193574.0236,160.0000,-0.9293,18.3184,0
640189.2024,5193573.2435,160.0000,-0.9284,18.0850,0
640189.8383,5193572.4675,160.0000,-0.9279,18.0850,0
640190.7859,5193571.3077,160.0000,-0.9263,17.9683,0
640191.7297,5193570.1532,160.0000,-0.9252,17.8516,0
640192.6707,5193569.0031,160.0000,-0.9212,17.8516,0
640193.6225,5193567.8637,160.0000,-0.9068,17.7350,0
640194.5940,5193566.7519,160.0000,-0.8851,17.7350,0
640195.5816,5193565.6661,160.0000,-0.8580,17.6183,0
640196.6008,5193564.6210,160.0000,-0.8169,17.6183,0
640197.6660,5193563.6373,160.0000,-0.7615,17.7350,0
640198.7891,5193562.7247,160.0000,-0.6970,17.7350,0
640199.9783,5193561.8808,160.0000,-0.6266,17.9683,0
640201.2424,5193561.1209,160.0000,-0.5523,18.0850,0
640202.5699,5193560.4538,160.0000,-0.4747,18.0850,0
640203.9539,5193559.8932,160.0000,-0.3913,18.0850,0
640205.3790,5193559.4521,160.0000,-0.3043,18.2017,0
640206.8347,5193559.1462,160.0000,-0.2125,18.2017,0
640208.3072,5193558.9760,160.0000,-0.1203,18.2017,0
640209.7866,5193558.9425,160.0000,-0.0301,18.2017,0
640211.2699,5193559.0344,160.0000,0.0551,18.2017,0
640212.7535,5193559.2548,160.0000,0.1322,18.4350,0
640213.7482,5193559.4610,160.0000,0.1785,18.6684,0
640214.7434,5193559.7113,160.0000,0.2201,18.7851,0
640215.7406,5193560.0072,160.0000,0.2587,19.0184,0
640216.7420,5193560.3423,160.0000,0.2923,19.2518,0
640217.7396,5193560.7103,160.0000,0.3220,19.4851,0
640218.7375,5193561.1080,160.0000,0.3464,19.7185,0
640219.7393,5193561.5337,160.0000,0.3663,19.8352,0
640220.7448,5193561.9796,160.0000,0.3807,19.9518,0
640221.7527,5193562.4375,160.0000,0.3910,20.1852,0
640222.7702,5193562.9127,160.0000,0.3988,20.4186,0
640223.7891,5193563.3928,160.0000,0.4052,20.5352,0
640224.8114,5193563.8871,160.0000,0.4106,20.7686,0
640225.8408,5193564.3867,160.0000,0.4121,20.8853,0
640226.8786,5193564.8873,160.0000,0.4111,20.8853,0
640227.9285,5193565.3917,160.0000,0.4068,21.0019,0
640228.9814,5193565.8876,160.0000,0.3986,21.0019,0
640230.0398,5193566.3728,160.0000,0.3873,21.1186,0
640231.1094,5193566.8421,160.0000,0.3727,21.2353,0
640232.1886,5193567.2972,160.0000,0.3579,21.2353,0
640233.2781,5193567.7416,160.0000,0.3426,21.2353,0
640234.3745,5193568.1668,160.0000,0.3247,21.1186,0
640235.4793,5193568.5707,160.0000,0.3032,21.3520,0
640236.5898,5193568.9469,160.0000,0.2774,21.2353,0
640237.7049,5193569.2897,160.0000,0.2480,21.0019,0
640238.8253,5193569.5946,160.0000,0.2146,20.8853,0
640239.9504,5193569.8559,160.0000,0.1757,20.8853,0
640241.0767,5193570.0647,160.0000,0.1343,20.7686,0
640242.2041,5193570.2286,160.0000,0.0896,20.6519,0
640243.3284,5193570.3356,160.0000,0.0399,20.5352,0
640244.4489,5193570.3836,160.0000,-0.0149,20.3019,0
640245.5644,5193570.3619,160.0000,-0.0750,20.3019,0
640246.6661,5193570.2717,160.0000,-0.1383,20.0685,0
640247.7541,5193570.1146,160.0000,-0.2015,19.9518,0
640248.8194,5193569.8874,160.0000,-0.2648,19.8352,0
640249.8641,5193569.6011,160.0000,-0.3273,19.7185,0
640250.8809,5193569.2502,160.0000,-0.3892,19.6018,0
640251.8673,5193568.8392,160.0000,-0.4514,19.3685,0
640252.8191,5193568.3737,160.0000,-0.5122,19.2518,0
640253.7298,5193567.8539,160.0000,-0.5733,19.0184,0
640254.6040,5193567.2873,160.0000,-0.6336,18.9017,0
640255.4334,5193566.6710,160.0000,-0.6936,18.7851,0
640256.2207,5193566.0117,160.0000,-0.7530,18.6684,0
640256.9608,5193565.3139,160.0000,-0.8123,18.5517,0
640257.6527,5193564.5819,160.0000,-0.8711,18.3184,0
640258.2956,5193563.8130,160.0000,-0.9295,18.3184,0
640259.1673,5193562.5977,160.0000,-1.0163,18.0850,0
640259.9342,5193561.3139,160.0000,-1.1004,18.0850,0
640260.5907,5193559.9775,160.0000,-1.1827,18.0850,0
640261.1413,5193558.5889,160.0000,-1.2624,18.0850,0
640261.5777,5193557.1573,160.0000,-1.3420,18.2017,0
640261.8074,5193556.1819,160.0000,-1.3962,18.2017,0
640262.0517,5193554.7050,160.0000,-1.4788,18.2017,0
640262.1748,5193553.2142,160.0000,-1.5620,18.3184,0
640262.1690,5193551.7198,160.0000,-1.6483,18.2017,0
640262.0314,5193550.2345,160.0000,-1.7357,18.0850,0
640261.7687,5193548.7688,160.0000,-1.8212,18.0850,0
640261.3889,5193547.3322,160.0000,-1.9022,18.0850,0
640260.8934,5193545.9316,160.0000,-1.9834,18.0850,0
640260.2867,5193544.5755,160.0000,-2.0640,17.9683,0
640259.5757,5193543.2679,160.0000,-2.1416,18.0850,0
640258.7644,5193542.0193,160.0000,-2.2205,18.0850,0
640257.8534,5193540.8390,160.0000,-2.3047,18.2017,0
640256.8455,5193539.7397,160.0000,-2.3899,18.2017,0
640255.7429,5193538.7295,160.0000,-2.4757,18.3184,0
640254.5509,5193537.8121,160.0000,-2.5611,18.4350,0
640253.7131,5193537.2592,160.0000,-2.6175,18.4350,0
640252.8434,5193536.7454,160.0000,-2.6717,18.4350,0
640251.9434,5193536.2810,160.0000,-2.7273,18.6684,0
640251.0169,5193535.8648,160.0000,-2.7849,18.6684,0
640250.0623,5193535.5051,160.0000,-2.8452,18.7851,0
640249.0828,5193535.2034,160.0000,-2.9058,18.7851,0
640248.0854,5193534.9602,160.0000,-2.9665,18.7851,0
640247.0735,5193534.7800,160.0000,-3.0274,18.7851,0
640246.0496,5193534.6587,160.0000,-3.0882,18.9017,0
640245.0182,5193534.6033,160.0000,3.1340,19.0184,0
640243.9797,5193534.6086,160.0000,3.0727,19.0184,0
640242.9439,5193534.6791,160.0000,3.0112,19.0184,0
640241.9148,5193534.8126,160.0000,2.9499,19.0184,0
640240.8913,5193535.0113,160.0000,2.8911,19.1351,0
640239.8776,5193535.2651,160.0000,2.8353,19.1351,0
640238.8762,5193535.5747,160.0000,2.7843,19.1351,0
640237.8854,5193535.9387,160.0000,2.7381,19.2518,0
640236.9070,5193536.3392,160.0000,2.7013,19.2518,0
640235.9378,5193536.7732,160.0000,2.6721,19.4851,0
640234.9726,5193537.2311,160.0000,2.6519,19.4851,0
640234.0092,5193537.7074,160.0000,2.6398,19.6018,0
640233.0417,5193538.1901,160.0000,2.6365,19.7185,0
640232.0651,5193538.6745,160.0000,2.6404,19.8352,0
640231.0790,5193539.1517,160.0000,2.6494,19.9518,0
640230.0811,5193539.6203,160.0000,2.6605,20.0685,0
640229.0747,5193540.0833,160.0000,2.6720,20.3019,0
640228.0560,5193540.5390,160.0000,2.6864,20.3019,0
640227.0220,5193540.9739,160.0000,2.7062,20.5352,0
640225.9743,5193541.3868,160.0000,2.7308,20.5352,0
640224.9100,5193541.7744,160.0000,2.7581,20.7686,0
640223.8275,5193542.1298,160.0000,2.7883,20.8853,0
640222.7262,5193542.4543,160.0000,2.8197,21.0019,0
640221.6063,5193542.7481,160.0000,2.8513,21.2353,0
640220.4683,5193543.0063,160.0000,2.8841,21.3520,0
640219.3120,5193543.2289,160.0000,2.9169,21.5853,0
640218.1374,5193543.4164,160.0000,2.9497,21.8187,0
640216.9433,5193543.5652,160.0000,2.9834,21.9354,0
640215.7308,5193543.6760,160.0000,3.0150,22.2854,0
640214.5054,5193543.7474,160.0000,3.0440,22.5187,0
640213.2660,5193543.7888,160.0000,3.0680,22.6354,0
640212.0153,5193543.8067,160.0000,3.0871,22.8688,0
640210.7519,5193543.8040,160.0000,3.1032,23.1021,0
640209.4771,5193543.7803,160.0000,3.1173,23.2188,0
640208.1889,5193543.7439,160.0000,3.1286,23.4522,0
640206.8933,5193543.6940,160.0000,3.1388,23.5688,0
640205.5886,5193543.6285,160.0000,-3.1363,23.4522,0
640204.2872,5193543.5570,160.0000,-3.1322,23.1021,0
640202.9923,5193543.4847,160.0000,-3.1320,23.3355,0
640201.7040,5193543.4185,160.0000,-3.1357,23.1021,0
640200.4324,5193543.3638,160.0000,-3.1410,22.9855,0
640199.1712,5193543.3137,160.0000,3.1371,22.6354,0
640197.9206,5193543.2717,160.0000,3.1310,22.4021,0
640196.6814,5193543.2371,160.0000,3.1246,22.2854,0
640195.4548,5193543.2115,160.0000,3.1189,22.0520,0
640194.2363,5193543.1913,160.0000,3.1129,21.7020,0
640193.0363,5193543.1781,160.0000,3.1072,21.5853,0
640191.8482,5193543.1712,160.0000,3.1019,21.2353,0
640190.6754,5193543.1715,160.0000,3.0960,21.0019,0
640189.5179,5193543.1770,160.0000,3.0903,20.6519,0
640188.3758,5193543.1894,160.0000,3.0851,20.3019,0
640187.2562,5193543.2063,160.0000,3.0792,19.9518,0
640186.1627,5193543.2274,160.0000,3.0744,19.2518,0
640185.1036,5193543.2546,160.0000,3.0689,18.5517,0
640184.0803,5193543.2833,160.0000,3.0639,17.9683,0
640182.6172,5193543.3365,160.0000,3.0563,16.9182,0
640181.2310,5193543.3961,160.0000,3.0464,16.3348,0
640179.9059,5193543.4697,160.0000,3.0310,15.5181,0
640178.6379,5193543.5629,160.0000,3.0095,14.9347,0
640177.4227,5193543.6829,160.0000,2.9803,14.4680,0
640176.2623,5193543.8391,160.0000,2.9427,13.7679,0
640175.1538,5193544.0313,160.0000,2.8990,13.3012,0
640174.1034,5193544.2689,160.0000,2.8487,12.7178,0
640173.1107,5193544.5511,160.0000,2.7911,12.2511,0
640171.8774,5193544.9961,160.0000,2.7090,11.6677,0
640170.7520,5193545.5152,160.0000,2.6285,10.9677,0
640169.7332,5193546.0777,160.0000,2.5537,10.2676,0
640168.8191,5193546.6742,160.0000,2.4868,9.5676,0
640168.0085,5193547.2851,160.0000,2.4285,8.8675,0
640167.1322,5193548.0261,160.0000,2.3663,7.9341,0
640166.3953,5193548.7292,160.0000,2.3242,6.8840,0
640165.6640,5193549.4755,160.0000,2.2951,5.7172,0
640164.9031,5193550.2925,160.0000,2.2761,4.4337,0
640164.2323,5193551.0441,160.0000,2.2621,2.8003,0
